t,x,y,theta,xg,yg,D,eD,phi,alpha,v,w
0.07876179995946586,-2.0,-2.0,-0.0007961638612909647,2.0,-2.0,4.0,-3.999,0.0,-0.0007961638612909647,0.39989987325632176,0.000875760309687286
0.10206169995944947,-1.9983677809675537,-1.9997752176781702,-0.0007961638612909647,2.0,-2.0,3.9983677872860186,-3.9973677872860187,-5.621852063307686e-05,-0.0007399453406578878,0.3997366692968448,0.0008139213415364631
0.10334819997660816,-1.9934573565518594,-1.9993716300731428,-0.00430544442556669,2.0,-2.0,3.993457405988817,-3.992457405988817,-0.00015734985141142263,-0.004148094574155267,0.399242305755241,0.004562795402184391
0.1529187000123784,-1.9934573565518594,-1.9993716300731428,-0.00430544442556669,2.0,-2.0,3.993457405988817,-3.992457405988817,-0.00015734985141142263,-0.004148094574155267,0.399242305755241,0.004562795402184391
0.20134919998236,-1.9852408753248774,-1.9989305964711472,-0.010113656702867138,2.0,-2.0,3.985241018807282,-3.9842410188072823,-0.00026834099534760116,-0.009845315707519536,0.3984047923645184,0.01082953663045635
0.25124419992789626,-1.9733481924951355,-1.9987160163173523,-0.01681839905933894,2.0,-2.0,3.973348399954182,-3.972348399954182,-0.00032314903596403503,-0.016495250023374906,0.3971807987568414,0.018144060753522703
0.301904599997215,-1.9576301412860857,-1.9988140891967674,-0.02288293584666669,2.0,-2.0,3.9576303189662063,-3.9566303189662064,-0.00029965174243201366,-0.02258328410423468,0.39556214117754235,0.024840274321785025
0.3521916000172496,-1.938744200646381,-1.999196403184456,-0.025820049991736045,2.0,-2.0,3.9387442826227423,-3.9377442826227425,-0.00020402360840341723,-0.02561602638333263,0.3936452417154616,0.02817585850996068
0.4012128999456763,-1.9189731813219602,-1.9998703292912132,-0.024211632877927318,2.0,-2.0,3.918973183467228,-3.917973183467228,-3.3087929602956634e-05,-0.02417854494832436,0.39168280117083365,0.026594840510752362
0.4520245000021532,-1.8992590965609477,-2.0005839770718836,-0.02235987394812088,2.0,-2.0,3.8992591402909498,-3.89825914029095,0.00014976616148244524,-0.022509640109603324,0.3897271589421974,0.02475926676118972
0.5014342999784276,-1.8796706691757277,-2.0011758480752935,-0.020747613185343686,2.0,-2.0,3.8796708473633603,-3.8786708473633604,0.00030307934346911094,-0.0210506925288128,0.38778114981800754,0.023154597525551022
0.550309699960053,-1.8602416820280343,-2.0016435446129885,-0.01937867629138176,2.0,-2.0,3.8602420319075232,-3.8592420319075234,0.0004257620763306217,-0.019804438367712382,0.38584852288337873,0.02178385150217555
0.6004636000143364,-1.8409221208181556,-2.002048428496787,-0.018143202329660896,2.0,-2.0,3.8409226670488357,-3.839922667048836,0.0005333168020968739,-0.01867651913175777,0.3839252980258366,0.02054325063072321
0.6505080999340862,-1.821704616692644,-2.0024280730634336,-0.016976924141448312,2.0,-2.0,3.8217053880157574,-3.8207053880157575,0.0006353376255526821,-0.017612261767000995,0.38201128276602075,0.01937266300145341
0.7002588999457657,-1.8025807346702565,-2.002788926177254,-0.01586564205734766,2.0,-2.0,3.802581757410958,-3.801581757410958,0.0007334297078174631,-0.016599071765165122,0.3801058046077189,0.01825823761564757
0.7512500999728218,-1.783561397718532,-2.003131881586689,-0.014810183067468768,2.0,-2.0,3.783562693941794,-3.7825626939417942,0.0008277600234714973,-0.015637943090940264,0.3782100199470467,0.01720106922157453
0.8015463999472558,-1.7646185097793936,-2.0034536655334634,-0.013814178145358538,2.0,-2.0,3.76462009397751,-3.76362009397751,0.0009174009413158878,-0.014731579086674426,0.3763211712033719,0.016204132608800086
0.8509733999380842,-1.745767699400459,-2.0037514856665233,-0.012873862813858154,2.0,-2.0,3.7457695780061693,-3.7447695780061694,0.0010015261792151598,-0.013875388993073313,0.37444091002499386,0.015262379426592084
0.9005873999558389,-1.7270184914239786,-2.0040253274786726,-0.011990111297797451,2.0,-2.0,3.7270206651798405,-3.7260206651798407,0.001080039158049275,-0.013070150455846726,0.3725702413829553,0.01437666600959499
0.952271300018765,-1.7083703567507182,-2.004284322110316,-0.011154479212276858,2.0,-2.0,3.708372831612727,-3.707372831612727,0.0011553107678040598,-0.012309789980080917,0.37070919443343625,0.01354031271527187
1.0018875999376178,-1.6898329716518545,-2.004523517007785,-0.009629988782269111,2.0,-2.0,3.689835744432979,-3.688835744432979,0.001225940246174303,-0.010855929028443415,0.36886183797172656,0.011941142452417265
1.0521548999240622,-1.6529900361964767,-2.004951561367164,-0.008932824174475754,2.0,-2.0,3.6529933920704964,-3.6519933920704966,0.0013554809308406668,-0.01028830510531642,0.3651800113445831,0.011316781396255445
1.1013800000073388,-1.6529900361964767,-2.004951561367164,-0.008932824174475754,2.0,-2.0,3.6529933920704964,-3.6519933920704966,0.0013554809308406668,-0.01028830510531642,0.3651800113445831,0.011316781396255445
1.152787399943918,-1.6347382338023213,-2.005142362065773,-0.008259343597110478,2.0,-2.0,3.63474187146103,-3.63374187146103,0.0014147810114513084,-0.009674124608561787,0.36335718342219486,0.01064121057078342
1.2025844999589026,-1.6165470536104167,-2.0053175334925917,-0.007614665403234348,2.0,-2.0,3.6165509628844763,-3.6155509628844764,0.0014703333267366198,-0.009084998729970968,0.3615401755180802,0.00999319742143252
1.2516248999163508,-1.5984713105909962,-2.00547915606937,-0.0069944022007663,2.0,-2.0,3.5984754819642326,-3.5974754819642327,0.0015226331856335368,-0.008517035386399837,0.35973450025119236,0.009368461064214774
1.3043620999669656,-1.5804940904022338,-2.0056273448351103,-0.005878594344414864,2.0,-2.0,3.580498512555928,-3.579498512555928,0.0015716658258878495,-0.007450260170302713,0.35793991705191913,0.008195050547357816
1.3532146000070497,-1.5447710132000931,-2.005887391361152,-0.005371269473395072,2.0,-2.0,3.54477590228221,-3.54377590228221,0.00166086495455564,-0.007032134427950712,0.35436882811635145,0.007735126314257628
1.404284599935636,-1.5447710132000931,-2.005887391361152,-0.005371269473395072,2.0,-2.0,3.54477590228221,-3.54377590228221,0.00166086495455564,-0.007032134427950712,0.35436882811635145,0.007735126314257628
1.453343499917537,-1.5270471925906826,-2.0060035466029666,-0.004885193852472157,2.0,-2.0,3.5270523020411293,-3.5260523020411294,0.0017021435997699149,-0.0065873374522420714,0.35259757992980656,0.007245865380655477
1.5032912999158725,-1.5094111872964264,-2.00610816846592,-0.004434569848102367,2.0,-2.0,3.509416502959334,-3.508416502959334,0.0017405091543726198,-0.006175079002474987,0.35083496124033214,0.006792395252177808
1.552504999912344,-1.4918525515226553,-2.006203315246674,-0.004018353702659582,2.0,-2.0,3.4918580616478856,-3.4908580616478857,0.0017765093540704703,-0.005794863056730052,0.349079944954082,0.006374170439701042
1.6010597000131384,-1.4744147081859682,-2.006289929509876,-0.0036199936125403706,2.0,-2.0,3.4744204016889237,-3.473420401688924,0.0018103545968622143,-0.005430348209402585,0.34733691885205,0.005973216062809281
1.6516138999722898,-1.4570434313819152,-2.006368616152772,-0.0032442145344864365,2.0,-2.0,3.4570492975560168,-3.456049297556017,0.0018422125942842106,-0.005086427128770647,0.345600459064636,0.005594913939209904
1.7030544999288395,-1.439756082584149,-2.006439881908579,-0.0028941421100319806,2.0,-2.0,3.439762110924773,-3.438762110924773,0.0018721892569811625,-0.004766331367013143,0.34387230502465665,0.005242818721378498
1.7533989999210462,-1.4225724984071846,-2.0065033445264335,-0.002566407288459942,2.0,-2.0,3.4225786770128788,-3.421578677012879,0.0019001311740471135,-0.004466538462507055,0.3421544546880763,0.004913055867889811
1.8022725000046194,-1.4054595243125791,-2.006560934695095,-0.0022577229106909243,2.0,-2.0,3.405465844432349,-3.404465844432349,0.0019265906790941294,-0.0041843135897850535,0.340443604096439,0.004602617195630109
1.851436399971135,-1.3884257041281314,-2.006612220378041,-0.0019611340581504855,2.0,-2.0,3.388432155710743,-3.387432155710743,0.0019514112340898817,-0.003912545292240367,0.3387406228320037,0.004303680362051163
1.9028687999816611,-1.3714930340050013,-2.0066578768256975,-0.0016771072193505292,2.0,-2.0,3.371499607840416,-3.370499607840416,0.0019747536489253467,-0.003651860868275876,0.3370477133226041,0.004016935393681094
1.952185499947518,-1.3546581803433198,-2.00669756027803,-0.0014191414028839223,2.0,-2.0,3.3546648661614515,-3.3536648661614517,0.001996492941809299,-0.003415634344693221,0.3353645303317674,0.003757093305927271
2.0027181999757886,-1.3378736191221063,-2.006732263436775,-0.0009559767607035325,2.0,-2.0,3.3378804083732976,-3.3368804083732977,0.0020169290620378846,-0.002972905822741417,0.3336865662427616,0.003270105588195642
2.0524715000065044,-1.3212019679303162,-2.00676213181519,-0.0009559767607035325,2.0,-2.0,3.3212088519409453,-3.3202088519409454,0.0020360467494522794,-0.002992023510155812,0.33201939903574124,0.003291133987643991
2.102222800021991,-1.304594193374809,-2.0067878393321177,-0.0007485092368029613,2.0,-2.0,3.3046011646867925,-3.3036011646867927,0.002054058498137271,-0.0028025677349402325,0.33035881908160664,0.003082738233336281
2.1531684999354184,-1.2880843227826573,-2.0068094800308174,-0.0005459512961602971,2.0,-2.0,3.288091373844008,-3.287091373844008,0.0020709536701016646,-0.0026169049662619617,0.32870801185346604,0.0028785146811600125
2.2034608999965712,-1.2716494256358872,-2.0068275471568806,-0.0001776392788641596,2.0,-2.0,3.271656549771661,-3.2706565497716613,0.0020868792334252945,-0.002264518512289454,0.3270648163739746,0.002490900373319398
2.254346299916506,-1.255294172775066,-2.006841707951797,-0.0001776392788641596,2.0,-2.0,3.255301362434974,-3.254301362434974,0.002101714166196271,-0.0022793534450604304,0.3254292908655166,0.0025072179805882655
2.3017953999806195,-1.2390335608200824,-2.0068527937259697,0.00015608423543588573,2.0,-2.0,3.2390408100085235,-3.2380408100085236,0.0021156877113542947,-0.001959603475918409,0.32380345928980353,0.0021555028225016294
2.3525079999817535,-1.2228394717682367,-2.006860811459377,0.00015608423543588573,2.0,-2.0,3.2228467744404554,-3.2218467744404555,0.002128806338477167,-0.0019727221030412813,0.32218405053206867,0.0021699325911514523
2.400764799909666,-1.206734668693668,-2.0068661598162025,0.0003098713521180701,2.0,-2.0,3.206742019488395,-3.205742019488395,0.0021411654011759926,-0.0018312940490579225,0.320573664404094,0.0020143659370384587
2.452349199913442,-1.1907104191676434,-2.006867862741169,0.0004470048696969161,2.0,-2.0,3.19071781054414,-3.18971781054414,0.002152452348392954,-0.0017054474786960378,0.3189713171816637,0.0018759384457013187
2.5022608999861404,-1.174769176873029,-2.0068674027148967,0.0005680988947399986,2.0,-2.0,3.174776604368109,-3.173776604368109,0.002163115370372335,-0.0015950164756323363,0.31737725672020495,0.0017544676124835392
2.550637900014408,-1.1588983440802232,-2.006864861977821,0.0008039793987477324,2.0,-2.0,3.158905803369697,-3.157905803369697,0.0021731788817366954,-0.0013691994829889628,0.31579028432957484,0.001506075916112785
2.602921099984087,-1.1431152254994488,-2.0068600107566823,0.0009116580059463095,2.0,-2.0,3.1431227116538154,-3.1421227116538155,0.0021825480047423045,-0.001270889998795995,0.31421201741365157,0.0013979384278805993
2.6512180999852717,-1.111763132243449,-2.0068447154898403,0.0010145772474928045,2.0,-2.0,3.1117706601418584,-3.1107706601418585,0.002199622580489581,-0.0011850453329967764,0.3110768475864037,0.0013035116727162317
2.7012064999435097,-1.0962153963706287,-2.006834173803593,0.0011096162775183912,2.0,-2.0,3.096222938784303,-3.0952229387843033,0.002207263329571964,-0.0010976470520535728,0.3095221074177233,0.0012073762179589283
2.753040899988264,-1.080749822369838,-2.006822080971095,0.001198037279984932,2.0,-2.0,3.0807573758445446,-3.0797573758445447,0.002214418636178367,-0.001016381356193435,0.3079755785102167,0.0011179864305565289
2.80200409993995,-1.080749822369838,-2.006822080971095,0.0012761344081132703,2.0,-2.0,3.0807573758445446,-3.0797573758445447,0.002214418636178367,-0.0009382842280650967,0.30797560201704144,0.0010320821395354827
2.8508683999534696,-1.0653570640628631,-2.006807917661347,0.0012761344081132703,2.0,-2.0,3.0653646239791734,-3.0643646239791735,0.0022209179308534826,-0.0009447835227402123,0.30643632563289747,0.001039230997566257
2.9010888999328017,-1.050039364373418,-2.0067930536626735,0.0013540796615049337,2.0,-2.0,3.0500469291152665,-3.0490469291152666,0.002227198281406406,-0.0008731186199014724,0.3049045766916031,0.00096040181113265
2.9508810999104753,-1.03479284552074,-2.006777177897956,0.0015039980812424942,2.0,-2.0,3.034800412772499,-3.033800412772499,0.002233156257125107,-0.0007291581758826127,0.3033799606279706,0.0008020499410734297
3.0008640999440104,-1.0196359392388872,-2.006759834877408,0.0015039980812424942,2.0,-2.0,3.0196435055997397,-3.01864350559974,0.0022386220462604764,-0.0007346239650179822,0.30186426910605296,0.0008080620069294576
3.0505913000088185,-1.0045467485026751,-2.0067413893170456,0.0015717257328108913,2.0,-2.0,3.004554311419237,-3.003554311419237,0.0022437254496596617,-0.0006719997168487704,0.3003553633241299,0.0007391773022728487
3.100255399942398,-0.9895309144586811,-2.0067217787476954,0.0016316604500839153,2.0,-2.0,2.9895384712048263,-2.9885384712048264,0.002248435494662208,-0.0006167750445782926,0.29885379027677095,0.0006784319022869907
3.1509089999599382,-0.974601174030307,-2.006701203501874,0.001693279948589315,2.0,-2.0,2.974608722281109,-2.973608722281109,0.002252803577130067,-0.0005595236285407521,0.29736082568121996,0.0006154571697300213
3.201378299971111,-0.9597197196122819,-2.0066794744506136,0.0017437528095693544,2.0,-2.0,2.9597272566979447,-2.958727256697945,0.0022567890691176104,-0.0005130362595482561,0.2958726867320269,0.0005643225426005716
3.2522652000188828,-0.9302307006506799,-2.0066343398864346,0.0018393330878039677,2.0,-2.0,2.930238211050683,-2.929238211050683,0.0022640976864982563,-0.0004247645986942886,0.2929237946796837,0.0004672265575494998
3.30227979994379,-0.9155761405284334,-2.0066103145469443,0.0018770278015389007,2.0,-2.0,2.9155836341077723,-2.9145836341077724,0.0022672373835742176,-0.00039020958203531695,0.29145834122153963,0.0004292171526953219
3.3519433999899775,-0.9155761405284334,-2.0066103145469443,0.0018770278015389007,2.0,-2.0,2.9155836341077723,-2.9145836341077724,0.0022672373835742176,-0.00039020958203531695,0.29145834122153963,0.0004292171526953219
3.401526100002229,-0.9010261835465663,-2.0065857183652414,0.0019161225253726652,2.0,-2.0,2.90103365876874,-2.90003365876874,0.002270130166160579,-0.000354007640787914,0.2900033477050589,0.00038939619909954596
3.451436599949375,-0.8865143607709728,-2.006560970275852,0.0019503098781278184,2.0,-2.0,2.886521817216703,-2.885521817216703,0.0022729694562308193,-0.0003226595781030009,0.28855216670120154,0.00035491435553017855
3.5016254999209195,-0.8720992875279603,-2.0065359074739817,0.0019857684338441045,2.0,-2.0,2.872106724254014,-2.8711067242540143,0.0022756512005353132,-0.00028988276669120877,0.2871106603621569,0.00031886094870089613
3.550692899967544,-0.857739876760905,-2.0065102271592004,0.0020244191056526433,2.0,-2.0,2.8577472922368585,-2.8567472922368586,0.0022780995394346645,-0.0002536804337820212,0.2856747200315641,0.00027903959913500547
3.601468999986537,-0.8434560405186206,-2.0064846121934137,0.0020598660147433476,2.0,-2.0,2.84346343471428,-2.84246343471428,0.0022805349754650584,-0.00022066896072171077,0.28424633655077003,0.00024272809550810788
3.6518982999259606,-0.8292638431463812,-2.0064581073120182,0.002127323796877633,2.0,-2.0,2.8292712138085108,-2.828271213808511,0.002282606520225759,-0.00015528272334812626,0.2828271179709849,0.0001708055069979906
3.702344399993308,-0.8151293622017791,-2.0064307693094134,0.002127323796877633,2.0,-2.0,2.815136707288743,-2.814136707288743,0.002284356168457433,-0.0001570323715798,0.28141366725916117,0.00017273003033599452
3.7506022999295965,-0.801069636122941,-2.006403247595075,0.0021539161861414686,2.0,-2.0,2.8010769550281314,-2.8000769550281315,0.002285996877229538,-0.00013208069108806928,0.2800076930604028,0.00014528404468943108
3.8010664000175893,-0.7870750019099467,-2.0063751485173684,0.0021794207671451413,2.0,-2.0,2.7870822931499433,-2.7860822931499434,0.0022873935557446443,-0.00010797278859950299,0.2786082276909698,0.00011876619333177249
3.851311899954453,-0.7731390071195718,-2.006346988053171,0.0021946794410911898,2.0,-2.0,2.7731462704057774,-2.7721462704057775,0.002288733797473346,-9.405435638215609e-05,0.2772146258144267,0.00010345640035311453
3.900462199933827,-0.759291508686695,-2.006319097877309,0.0022183590378260652,2.0,-2.0,2.759298744411065,-2.758298744411065,0.002290112085053886,-7.175304722782097e-05,0.2758298737310515,7.892575151718904e-05
3.9510073999408633,-0.7454901409439073,-2.0062908539484376,0.002239921111633461,2.0,-2.0,2.7454973481800335,-2.7444973481800337,0.0022913369256554513,-5.141581402199041e-05,0.2744497344552376,5.655552268289003e-05
4.000934400013648,-0.7317893247596052,-2.006262273503351,0.0022593190984436765,2.0,-2.0,2.731796502475975,-2.7307965024759753,0.0022923665735454842,-3.3047475101807746e-05,0.27307965009847757,3.6351012875436806e-05
4.052446199930273,-0.7181414368996892,-2.00623324632874,0.0022741877935042436,2.0,-2.0,2.718148583935562,-2.717148583935562,0.0022931975936740113,-1.9009800169767638e-05,0.2717148583444611,2.0910080820538817e-05
4.100811899988912,-0.7045546471091837,-2.006204130512434,0.002285475524960596,2.0,-2.0,2.704561763102351,-2.703561763102351,0.002293952402317576,-8.476877356979919e-06,0.27035617630052156,9.324251663767893e-06
4.151493399986066,-0.6910310114233345,-2.0061752729265803,0.002296884039140769,2.0,-2.0,2.6910380968016434,-2.6900380968016435,0.002294756939212795,2.127099927974087e-06,0.2690038096795558,-2.3397308769278666e-06
4.201384200016037,-0.6776083192427709,-2.0061459239631345,0.0023089261229052123,2.0,-2.0,2.6776153726141207,-2.676615372614121,0.0022952995499382098,1.3626572967002492e-05,0.26766153723656194,-1.498872135650041e-05
4.250201500020921,-0.6642142389081667,-2.0061174535950497,0.002324760594846282,2.0,-2.0,2.6642212622151917,-2.663221262215192,0.0022961527472732395,2.8607847573042505e-05,0.26632212611253897,-3.146755854981854e-05
4.301685099955648,-0.6508980780054967,-2.0060883573449653,0.0023406956518155658,2.0,-2.0,2.6509050696070573,-2.6499050696070574,0.0022967109487746773,4.398470304088848e-05,0.2649905067043733,-4.8381514105879155e-05
4.35099419998005,-0.6376507724655924,-2.0060590671831067,0.002351445085796314,2.0,-2.0,2.637657731735387,-2.636657731735387,0.0022971413004104465,5.4303785385867356e-05,0.2636657727847766,-5.973210512561086e-05
4.400813999935053,-0.6244777880837347,-2.0060298126572116,0.0023694668776607568,2.0,-2.0,2.6244847149079713,-2.6234847149079714,0.0022975245113109554,7.194236634980138e-05,0.2623484708118781,-7.913386176029727e-05
4.4514170999173075,-0.6113660633659924,-2.0060004228768555,0.0023694668776607568,2.0,-2.0,2.6113729572725344,-2.6103729572725345,0.0022978058880605097,7.16609896002471e-05,0.2610372950570014,-7.882434434750768e-05
4.500859500025399,-0.598329908748691,-2.0059709238055,0.002375132068505255,2.0,-2.0,2.5983367692870516,-2.5973367692870517,0.0022979812052110545,7.715086329420067e-05,0.25973367615570453,-8.486298035268654e-05
4.550165499909781,-0.5853621654221935,-2.005941759077977,0.00238671680366687,2.0,-2.0,2.5853689931801753,-2.5843689931801754,0.00229822680020922,8.849000345765006e-05,0.258436898306175,-9.733558103484585e-05
4.602104499936104,-0.5724348143107474,-2.0059127260779195,0.0023930463632521573,2.0,-2.0,2.5724416094845846,-2.5714416094845847,0.002298489988007187,9.45563752449705e-05,0.25714415979890737,-0.00010400833696885093
4.651284999912605,-0.5595807045264622,-2.005883633553517,0.0023995514760102614,2.0,-2.0,2.559587466786,-2.5585874667860002,0.002298666801295025,0.00010088467471523624,0.255858745376571,-0.00011096920067558193
